r,counts
0.010000,0.036137
0.030000,0.036332
0.050000,0.036214
0.070000,0.035907
0.090000,0.035895
0.110000,0.035581
0.130000,0.034988
0.150000,0.034481
0.170000,0.034147
0.190000,0.033455
0.210000,0.032385
0.230000,0.031712
0.250000,0.031057
0.270000,0.030180
0.290000,0.029306
0.310000,0.028323
0.330000,0.027894
0.350000,0.026807
0.370000,0.025548
0.390000,0.024692
0.410000,0.023432
0.430000,0.022609
0.450000,0.021891
0.470000,0.020689
0.490000,0.019720
0.510000,0.018781
0.530000,0.017503
0.550000,0.016430
0.570000,0.015555
0.590000,0.014653
0.610000,0.013859
0.630000,0.012740
0.650000,0.012252
0.670000,0.011179
0.690000,0.010650
0.710000,0.009808
0.730000,0.008829
0.750000,0.008322
0.770000,0.007670
0.790000,0.007045
0.810000,0.006565
0.830000,0.005928
0.850000,0.005340
0.870000,0.004982
0.890000,0.004555
0.910000,0.004072
0.930000,0.003596
0.950000,0.003456
0.970000,0.003137
0.990000,0.002718
1.010000,0.002454
1.030000,0.002215
1.050000,0.001952
1.070000,0.001746
1.090000,0.001576
1.110000,0.001392
1.130000,0.001269
1.150000,0.001108
1.170000,0.001007
1.190000,0.000862
1.210000,0.000743
1.230000,0.000598
1.250000,0.000581
1.270000,0.000510
1.290000,0.000437
1.310000,0.000371
1.330000,0.000303
1.350000,0.000268
1.370000,0.000245
1.390000,0.000210
1.410000,0.000164
1.430000,0.000151
1.450000,0.000139
1.470000,0.000108
1.490000,0.000090
1.510000,0.000073
1.530000,0.000060
1.550000,0.000062
1.570000,0.000048
1.590000,0.000045
1.610000,0.000029
1.630000,0.000032
1.650000,0.000020
1.670000,0.000017
1.690000,0.000012
1.710000,0.000017
1.730000,0.000016
1.750000,0.000004
1.770000,0.000008
1.790000,0.000013
1.810000,0.000003
1.830000,0.000007
1.850000,0.000004
1.870000,0.000002
1.890000,0.000003
1.910000,0.000003
1.930000,0.000000
1.950000,0.000003
1.970000,0.000000
1.990000,0.000001
2.010000,0.000000
2.030000,0.000000
2.050000,0.000001
2.070000,0.000000
2.090000,0.000000
2.110000,0.000000
2.130000,0.000001
2.150000,0.000000
2.170000,0.000000
2.190000,0.000000
2.210000,0.000000
2.230000,0.000000
2.250000,0.000000
2.270000,0.000000
2.290000,0.000002
2.310000,0.000000
2.330000,0.000000
2.350000,0.000000
2.370000,0.000000
2.390000,0.000000
2.410000,0.000000
2.430000,0.000000
2.450000,0.000000
2.470000,0.000000
2.490000,0.000000
2.510000,0.000000
2.530000,0.000000
2.550000,0.000000
2.570000,0.000000
2.590000,0.000000
2.610000,0.000000
2.630000,0.000000
2.650000,0.000000
2.670000,0.000000
2.690000,0.000000
2.710000,0.000000
2.730000,0.000000
2.750000,0.000000
2.770000,0.000000
2.790000,0.000000
2.810000,0.000000
2.830000,0.000000
2.850000,0.000000
2.870000,0.000000
2.890000,0.000000
2.910000,0.000000
2.930000,0.000000
2.950000,0.000000
2.970000,0.000000
2.990000,0.000000
3.010000,0.000000
3.030000,0.000000
3.050000,0.000000
3.070000,0.000000
3.090000,0.000000
3.110000,0.000000
3.130000,0.000000
3.150000,0.000000
3.170000,0.000000
3.190000,0.000000
3.210000,0.000000
3.230000,0.000000
3.250000,0.000000
3.270000,0.000000
3.290000,0.000000
3.310000,0.000000
3.330000,0.000000
3.350000,0.000000
3.370000,0.000000
3.390000,0.000000
3.410000,0.000000
3.430000,0.000000
3.450000,0.000000
3.470000,0.000000
3.490000,0.000000
3.510000,0.000000
3.530000,0.000000
3.550000,0.000000
3.570000,0.000000
3.590000,0.000000
3.610000,0.000000
3.630000,0.000000
3.650000,0.000000
3.670000,0.000000
3.690000,0.000000
3.710000,0.000000
3.730000,0.000000
3.750000,0.000000
3.770000,0.000000
3.790000,0.000000
3.810000,0.000000
3.830000,0.000000
3.850000,0.000000
3.870000,0.000000
3.890000,0.000000
3.910000,0.000000
3.930000,0.000000
3.950000,0.000000
3.970000,0.000000
3.990000,0.000000
