r,counts
0.010000,0.036431
0.030000,0.036465
0.050000,0.035904
0.070000,0.035993
0.090000,0.035632
0.110000,0.035071
0.130000,0.034621
0.150000,0.034396
0.170000,0.033722
0.190000,0.033394
0.210000,0.032832
0.230000,0.031803
0.250000,0.031287
0.270000,0.030188
0.290000,0.029397
0.310000,0.028517
0.330000,0.027306
0.350000,0.026541
0.370000,0.025892
0.390000,0.024551
0.410000,0.023736
0.430000,0.022533
0.450000,0.021468
0.470000,0.020631
0.490000,0.019582
0.510000,0.018690
0.530000,0.017476
0.550000,0.016721
0.570000,0.015659
0.590000,0.014827
0.610000,0.013867
0.630000,0.013026
0.650000,0.011861
0.670000,0.011325
0.690000,0.010431
0.710000,0.009841
0.730000,0.009199
0.750000,0.008427
0.770000,0.007777
0.790000,0.007089
0.810000,0.006546
0.830000,0.006073
0.850000,0.005486
0.870000,0.005009
0.890000,0.004528
0.910000,0.004176
0.930000,0.003805
0.950000,0.003481
0.970000,0.003015
0.990000,0.002743
1.010000,0.002411
1.030000,0.002200
1.050000,0.001968
1.070000,0.001797
1.090000,0.001540
1.110000,0.001406
1.130000,0.001198
1.150000,0.001111
1.170000,0.001003
1.190000,0.000834
1.210000,0.000724
1.230000,0.000640
1.250000,0.000580
1.270000,0.000528
1.290000,0.000406
1.310000,0.000421
1.330000,0.000341
1.350000,0.000300
1.370000,0.000214
1.390000,0.000222
1.410000,0.000168
1.430000,0.000165
1.450000,0.000155
1.470000,0.000100
1.490000,0.000100
1.510000,0.000068
1.530000,0.000071
1.550000,0.000048
1.570000,0.000060
1.590000,0.000030
1.610000,0.000026
1.630000,0.000036
1.650000,0.000025
1.670000,0.000023
1.690000,0.000029
1.710000,0.000016
1.730000,0.000014
1.750000,0.000010
1.770000,0.000006
1.790000,0.000009
1.810000,0.000007
1.830000,0.000004
1.850000,0.000000
1.870000,0.000001
1.890000,0.000003
1.910000,0.000001
1.930000,0.000002
1.950000,0.000001
1.970000,0.000001
1.990000,0.000001
2.010000,0.000001
2.030000,0.000001
2.050000,0.000000
2.070000,0.000001
2.090000,0.000000
2.110000,0.000000
2.130000,0.000000
2.150000,0.000000
2.170000,0.000001
2.190000,0.000000
2.210000,0.000000
2.230000,0.000000
2.250000,0.000000
2.270000,0.000000
2.290000,0.000000
2.310000,0.000000
2.330000,0.000000
2.350000,0.000000
2.370000,0.000000
2.390000,0.000000
2.410000,0.000000
2.430000,0.000000
2.450000,0.000000
2.470000,0.000000
2.490000,0.000000
2.510000,0.000000
2.530000,0.000000
2.550000,0.000000
2.570000,0.000000
2.590000,0.000000
2.610000,0.000000
2.630000,0.000000
2.650000,0.000000
2.670000,0.000000
2.690000,0.000000
2.710000,0.000000
2.730000,0.000000
2.750000,0.000000
2.770000,0.000000
2.790000,0.000000
2.810000,0.000000
2.830000,0.000000
2.850000,0.000000
2.870000,0.000000
2.890000,0.000000
2.910000,0.000000
2.930000,0.000000
2.950000,0.000000
2.970000,0.000000
2.990000,0.000000
3.010000,0.000000
3.030000,0.000000
3.050000,0.000000
3.070000,0.000000
3.090000,0.000000
3.110000,0.000000
3.130000,0.000000
3.150000,0.000000
3.170000,0.000000
3.190000,0.000000
3.210000,0.000000
3.230000,0.000000
3.250000,0.000000
3.270000,0.000000
3.290000,0.000000
3.310000,0.000000
3.330000,0.000000
3.350000,0.000000
3.370000,0.000000
3.390000,0.000000
3.410000,0.000000
3.430000,0.000000
3.450000,0.000000
3.470000,0.000000
3.490000,0.000000
3.510000,0.000000
3.530000,0.000000
3.550000,0.000000
3.570000,0.000000
3.590000,0.000000
3.610000,0.000000
3.630000,0.000000
3.650000,0.000000
3.670000,0.000000
3.690000,0.000000
3.710000,0.000000
3.730000,0.000000
3.750000,0.000000
3.770000,0.000000
3.790000,0.000000
3.810000,0.000000
3.830000,0.000000
3.850000,0.000000
3.870000,0.000000
3.890000,0.000000
3.910000,0.000000
3.930000,0.000000
3.950000,0.000000
3.970000,0.000000
3.990000,0.000000
